t,signal
0.0,0.0
0.0016672224074691564,0.052364884510375444
0.003334444814938313,0.10465508190482645
0.005001667222407469,0.15679603428957484
0.006668889629876626,0.20871344198849195
0.008336112037345782,0.26033339208571316
0.010003334444814937,0.3115824862899136
0.011670556852284094,0.3623879678959871
0.013337779259753251,0.41267784762144866
0.015005001667222408,0.46238102809686754
0.016672224074691565,0.511427426791987
0.01833944648216072,0.5597480971619448
0.020006668889629875,0.6072753478011254
0.021673891297099034,0.6539428593956742
0.02334111370456819,0.6996857992695713
0.025008336112037347,0.7444409333233821
0.026675558519506502,0.7881467351693804
0.028342780926975657,0.8307434922716653
0.030010003334444816,0.8721734089051426
0.03167722574191397,0.912380705752833
0.03334444814938313,0.9513117159668667
0.03501167055685228,0.9889149775247328
0.03667889296432144,1.0251413217188539
0.0383461153717906,1.059943957624347
0.04001333777925975,1.0932785523968853
0.04168056018672891,1.1251033072599075
0.04334778259419807,1.155379029047969
0.045015005001667226,1.1840691971808526
0.04668222740913638,1.2111400259510572
0.048349449816605536,1.2365605220155245
0.050016672224074694,1.26030253699087
0.051683894631543846,1.2823408150599938
0.053351117039013005,1.302653035506687
0.05501833944648216,1.321219850103769
0.056685561853951315,1.3380249152893116
0.05835278426142047,1.353054919074666
0.06002000666888963,1.3662996026372471
0.061687229076358784,1.3777517765603644
0.06335445148382794,1.387407331691788
0.0650216738912971,1.3952652446021736
0.06668889629876626,1.401327577633965
0.06835611870623541,1.4055994735408754
0.07002334111370456,1.4080891447275474
0.07169056352117373,1.4088078571084766
0.07335778592864288,1.4077699086147206
0.07502500833611203,1.4049926023863133
0.0766922307435812,1.4004962146976327
0.07835945315105035,1.3943039576722192
0.0800266755585195,1.38644193685268
0.08169389796598867,1.3769391037003516
0.08336112037345782,1.365827203108296
0.08502834278092698,1.353140716019945
0.08669556518839613,1.338916797254316
0.08836278759586529,1.3231952086471255
0.09003001000333445,1.3060182476253481
0.0916972324108036,1.2874306713407933
0.09336445481827275,1.2674796164960522
0.09503167722574192,1.2462145150037454
0.09669889963321107,1.2236870056273048
0.09836612204068022,1.1999508417585742
0.10003334444814939,1.1750617954943028
0.10170056685561854,1.1490775581800987
0.10336778926308769,1.1220576375966007
0.10503501167055686,1.0940632519685378
0.10670223407802601,1.0651572209829037
0.10836945648549516,1.0354038540077335
0.11003667889296433,1.0048688357078823
0.11170390130043348,0.9736191092587707
0.11337112370790263,0.9417227573632749
0.1150383461153718,0.9092488812808033
0.11670556852284095,0.8762674780810837
0.1183727909303101,0.8428493163382953
0.12004001333777926,0.8090658104839302
0.12170723574524842,0.7749888940391103
0.12337445815271757,0.7406908919490515
0.12504168056018672,0.7062443922439545
0.12670890296765588,0.6717221172517617
0.12837612537512505,0.6371967945890284
0.1300433477825942,0.6027410281565219
0.13171057019006335,0.5684271693661703
0.13337779259753252,0.5343271888255665
0.13504501500500166,0.5005125487054263
0.13671223741247082,0.4670540760142008
0.13837945981994,0.4340218370024627
0.14004668222740912,0.4014850129176719
0.1417139046348783,0.36951177732757756
0.14338112704234746,0.33816917522776124
0.1450483494498166,0.307523004145664
0.14671557185728576,0.2776376974499628
0.14838279426475492,0.24857621007028163
0.15005001667222406,0.2203999068279725
0.15171723907969323,0.1931684535741388
0.1533844614871624,0.16693971132613394
0.15505168389463153,0.14176963358849592
0.1567189063021007,0.11771216703869858
0.15838612870956986,0.09481915575218558
0.160053351117039,0.07314024913493622
0.16172057352450817,0.05272281372530363
0.16338779593197733,0.03361184902007841
0.1650550183394465,0.015849907472646807
0.16672224074691563,-0.0005229811961887654
0.1683894631543848,-0.01546938124176167
0.17005668556185397,-0.028954517568269722
0.1717239079693231,-0.04094633771355294
0.17339113037679227,-0.051415569036985964
0.17505835278426143,-0.06033577100999887
0.17672557519173057,-0.0676833825173283
0.17839279759919974,-0.07343776408586555
0.1800600200066689,-0.07758123496686986
0.18172724241413804,-0.08009910500635953
0.1833944648216072,-0.08097970124763954
0.18506168722907637,-0.08021438921917279
0.1867289096365455,-0.07779758887034138
0.18839613204401467,-0.0737267851270319
0.19006335445148384,-0.06800253304843606
0.19173057685895298,-0.06062845757592783
0.19339779926642214,-0.051611247874381205
0.1950650216738913,-0.040960646275787105
0.19673224408136045,-0.028689431844496238
0.1983994664888296,-0.014813398592875227
0.20006668889629878,0.0006486716144583626
0.20173391130376792,0.017675041420322946
0.20340113371123708,0.03624105554184376
0.20506835611870625,0.05631918347861453
0.20673557852617538,0.07787906728725402
0.20840280093364455,0.10088757433853346
0.21007002334111372,0.1253088549645297
0.21173724574858285,0.1511044048946526
0.21340446815605202,0.17823313237100424
0.21507169056352118,0.20665142982528784
0.21673891297099032,0.23631324999149983
0.2184061353784595,0.26717018632082756
0.22007335778592865,0.2991715575576348
0.2217405801933978,0.33226449632810573
0.22340780260086696,0.3663940415860669
0.22507502500833612,0.40150323475374217
0.22674224741580526,0.43753321938869405
0.22840946982327442,0.4744233442020419
0.2300766922307436,0.5121112692471039
0.23174391463821273,0.5505330750921208
0.2334111370456819,0.5896233747854065
0.23507835945315106,0.6293154284164102
0.2367455818606202,0.6695412600715938
0.23841280426808936,0.7102317769798473
0.24008002667555853,0.7513168906382712
0.24174724908302767,0.7927256397057421
0.24341447149049683,0.8343863144485093
0.245081693897966,0.8762265825193865
0.24674891630543513,0.9181736158497309
0.2484161387129043,0.9601542184314807
0.25008336112037344,1.002094954764909
0.25175058352784263,1.043922278746629
0.25341780593531177,1.085562662771575
0.2550850283427809,1.1269427268223382
0.2567522507502501,1.1679893673192192
0.25841947315771924,1.2086298855048005
0.2600866955651884,1.2487921151376717
0.26175391797265757,1.2884045492711054
0.2634211403801267,1.3273964658941264
0.26508836278759584,1.3656980522144027
0.26675558519506504,1.4032405273647572
0.2684228076025342,1.4399562633178564
0.2700900300100033,1.475778903796836
0.2717572524174725,1.510643480973037
0.27342447482494164,1.5444865297460018
0.2750916972324108,1.5772461994050848
0.27675891963988,1.6088623624766107
0.2784261420473491,1.6392767205654675
0.28009336445481825,1.6684329070053319
0.28176058686228744,1.6962765861372393
0.2834278092697566,1.722755549042215
0.2850950316772257,1.7478198055598577
0.2867622540846949,1.771421672431289
0.28842947649216405,1.7935158574117032
0.2900966988996332,1.8140595392048033
0.2917639213071024,1.8330124430787567
0.2934311437145715,1.8503369120308677
0.29509836612204066,1.8659979733760066
0.29676558852950985,1.8799634006418176
0.298432810936979,1.8922037706620183
0.3001000333444481,1.9026925157674919
0.3017672557519173,1.9114059709834947
0.30343447815938646,1.9183234161500609
0.3051017005668556,1.9234271128916038
0.3067689229743248,1.926702336370742
0.3084361453817939,1.9281374017705413
0.31010336778926306,1.9277236854586124
0.31177059019673226,1.9254556407958408
0.3134378126042014,1.921330808561923
0.31510503501167053,1.915349821979325
0.3167722574191397,1.9075164063267784
0.31843947982660886,1.8978373731429008
0.320106702234078,1.8863226090300396
0.3217739246415472,1.8729850590779131
0.32344114704901633,1.8578407049360608
0.3251083694564855,1.8409085375735048
0.32677559186395466,1.8222105247733626
0.3284428142714238,1.8017715734193778
0.330110036678893,1.7796194866404793
0.33177725908636213,1.7557849158885195
0.33344448149383127,1.7303013080331984
0.33511170390130046,1.703204847566972
0.3367789263087696,1.6745343940213067
0.33844614871623874,1.6443314147040091
0.34011337112370793,1.6126399128756486
0.34178059353117707,1.5795063514910275
0.3434478159386462,1.5449795726394706
0.3451150383461154,1.5091107128252428
0.34678226075358454,1.4719531142367237
0.3484494831610537,1.4335622321599555
0.35011670556852287,1.3939955386990415
0.351783927975992,1.3533124229722484
0.35345115038346114,1.3115740879589148
0.35511837279093034,1.268843444178135
0.3567855951983995,1.225185000385762
0.3584528176058686,1.1806647514814304
0.3601200400133378,1.1353500638223184
0.36178726242080694,1.089309558144814
0.3634544848282761,1.0426129902994974
0.3651217072357453,0.9953311300086811
0.3667889296432144,0.9475356378592228
0.36845615205068355,0.8992989407463916
0.37012337445815274,0.8506941059873371
0.3717905968656219,0.801794714325028
0.373457819273091,0.7526747320454052
0.3751250416805602,0.7034083824321785
0.37679226408802935,0.6540700167847405
0.3784594864954985,0.6047339852254999
0.3801267089029677,0.5554745075232788
0.3817939313104368,0.5063655441594168
0.38346115371790596,0.45748066786272945
0.38512837612537515,0.4088929358387644
0.3867955985328443,0.36067476291744593
0.3884628209403134,0.31289779584165656
0.3901300433477826,0.2656327889173149
0.39179726575525176,0.21894948124306346
0.3934644881627209,0.1729164757349428
0.3951317105701901,0.12760112015826552
0.3967989329776592,0.08306939037537941
0.39846615538512836,0.03938577601411575
0.40013337779259756,-0.0033868312425304747
0.4018006002000667,-0.045187246549535764
0.40346782260753583,-0.08595609778482605
0.405135045015005,-0.12563592824035807
0.40680226742247416,-0.1641712959391901
0.4084694898299433,-0.20150886940440926
0.4101367122374125,-0.23759751971190246
0.41180393464488163,-0.27238840866558356
0.41347115705235077,-0.30583507294044254
0.41513837945981996,-0.33789350404588314
0.4168056018672891,-0.3685222239691373
0.41847282427475824,-0.39768235636617033
0.42014004668222743,-0.42533769317523185
0.42180726908969657,-0.451454756536331
0.4234744914971657,-0.4760028559081081
0.4251417139046349,-0.4989541402819945
0.42680893631210404,-0.5202836454022057
0.4284761587195732,-0.5399693359088433
0.43014338112704237,-0.5579921423303069
0.4318106035345115,-0.5743359928602704
0.43347782594198064,-0.5889878398636123
0.43514504834944984,-0.6019376810649668
0.436812270756919,-0.6131785753828777
0.4384794931643881,-0.622706653381957
0.4401467155718573,-0.6305211223248846
0.44181393797932644,-0.6366242658155641
0.4434811603867956,-0.6410214380342714
0.4451483827942648,-0.6437210525750886
0.4468156052017339,-0.6447345659054295
0.44848282760920305,-0.6440764554768739
0.45015005001667224,-0.6417641925259437
0.4518172724241414,-0.6378182096127591
0.4534844948316105,-0.6322618629547571
0.4551517172390797,-0.6251213896217976
0.45681893964654885,-0.6164258596679946
0.458486162054018,-0.606207123284506
0.4601533844614872,-0.5944997530662547
0.4618206068689563,-0.581340981494134
0.46348782927642546,-0.5667706337426435
0.46515505168389465,-0.5508310559311177
0.4668222740913638,-0.5335670389447025
0.4684894964988329,-0.5150257379590144
0.4701567189063021,-0.49525658780996096
0.47182394131377126,-0.47431121435749446
0.4734911637212404,-0.4522433419991007
0.4751583861287096,-0.42910869749558966
0.4768256085361787,-0.40496491027823867
0.47849283094364786,-0.37987140941247555
0.48016005335111706,-0.353889317399219
0.4818272757585862,-0.3270813410004968
0.48349449816605533,-0.2995116592812074
0.4851617205735245,-0.2712458090637754
0.48682894298099366,-0.24235056799699917
0.4884961653884628,-0.21289383544454665
0.490163387795932,-0.18294451140244616
0.49183061020340113,-0.15257237365830925
0.49349783261087027,-0.12184795340814372
0.49516505501833946,-0.09084240954933898
0.4968322774258086,-0.059627401870692244
0.49849949983327774,-0.028274963362306713
0.5001667222407469,0.0031426281302708147
0.5018339446482161,0.034552978682152596
0.5035011670556853,0.06588370726917941
0.5051683894631543,0.09706257472531392
0.5068356118706235,0.1280176124507934
0.5085028342780927,0.15867725064483199
0.5101700566855618,0.1889704458376155
0.511837279093031,0.21882680749745273
0.5135045015005002,0.2481767234906183
0.5151717239079693,0.2769514841734673
0.5168389463154385,0.3050834048987357
0.5185061687229077,0.3325059467207604
0.5201733911303767,0.3591538350875386
0.5218406135378459,0.3849631763110387
0.5235078359453151,0.4098715716110758
0.5251750583527842,0.4338182285323675
0.5268422807602534,0.4567440695389693
0.5285095031677226,0.47859183759520973
0.5301767255751917,0.49930619854762504
0.5318439479826609,0.5188338401279147
0.5335111703901301,0.537123567402923
0.5351783927975992,0.5541263945038936
0.5368456152050683,0.5697956324737499
0.5385128376125375,0.5840869730779726
0.5401800600200066,0.5969585684317588
0.5418472824274758,0.6083711063034685
0.543514504834945,0.618287880961949
0.5451817272424141,0.6266748594431799
0.5468489496498833,0.633500743119697
0.5485161720573525,0.6387370244645048
0.5501833944648216,0.6423580389096419
0.5518506168722908,0.6443410117081516
0.55351783927976,0.6446660997169908
0.555185061687229,0.6433164280273413
0.5568522840946982,0.6402781213778088
0.5585195065021674,0.6355403302951738
0.5601867289096365,0.6290952519166101
0.5618539513171057,0.6209381454566116
0.5635211737245749,0.6110673422912994
0.565188396132044,0.5994842506421926
0.5668556185395132,0.5861933548510411
0.5685228409469824,0.5712022092468012
0.5701900633544514,0.554521426615322
0.5718572857619206,0.5361646612917965
0.5735245081693898,0.5161485869054797
0.5751917305768589,0.49449286881554466
0.5768589529843281,0.4712201312862692
0.5785261753917973,0.44635591945902536
0.5801933977992664,0.41992865618760034
0.5818606202067356,0.3919695938124693
0.5835278426142048,0.36251276095850415
0.5851950650216738,0.3315949044492963
0.586862287429143,0.29925542643992176
0.5885295098366122,0.2655363168783089
0.5901967322440813,0.23048208141361248
0.5918639546515505,0.19413966487793644
0.5935311770590197,0.1565583704756165
0.5951983994664888,0.11778977482170083
0.596865621873958,0.07788763897860729
0.5985328442814272,0.03690781564701329
0.6002000666888962,-0.005091847326346821
0.6018672890963654,-0.04805160695469346
0.6035345115038346,-0.09190992845564028
0.6052017339113037,-0.13660359175283637
0.6068689563187729,-0.1820678009479958
0.6085361787262421,-0.22823629657127603
0.6102034011337112,-0.2750414704131507
0.6118706235411804,-0.32241448273635775
0.6135378459486496,-0.3702853816622512
0.6152050683561187,-0.4185832245222262
0.6168722907635878,-0.46723620096127805
0.618539513171057,-0.5161717575777427
0.6202067355785261,-0.5653167238806263
0.6218739579859953,-0.614597439343491
0.6235411803934645,-0.6639398813320495
0.6252084028009336,-0.7132697936810144
0.6268756252084028,-0.7625128156946801
0.628542847615872,-0.8115946113448527
0.6302100700233411,-0.8604409984395283
0.6318772924308103,-0.9089780775357057
0.6335445148382794,-0.957132360370106
0.6352117372457485,-1.0048308975825726
0.6368789596532177,-1.0520014055080071
0.6385461820606869,-1.0985723918144112
0.640213404468156,-1.1444732797666124
0.6418806268756252,-1.1896345308977234
0.6435478492830944,-1.23398776587297
0.6452150716905636,-1.2774658833340338
0.6468822940980327,-1.3200031765152516
0.6485495165055019,-1.3615354474271655
0.650216738912971,-1.4020001184070725
0.6518839613204401,-1.4413363408408753
0.6535511837279093,-1.4794851008655003
0.6552184061353785,-1.5163893218664408
0.6568856285428476,-1.5519939635905955
0.6585528509503168,-1.586246117700588
0.660220073357786,-1.6190950996028355
0.6618872957652551,-1.6504925363883651
0.6635545181727243,-1.6803924507321042
0.6652217405801935,-1.7087513406033863
0.6668889629876625,-1.735528254647972
0.6685561853951317,-1.760684863109271
0.6702234078026009,-1.7841855241643776
0.67189063021007,-1.8059973455586296
0.6735578526175392,-1.82609024143053
0.6752250750250084,-1.8444369842273831
0.6768922974324775,-1.8610132516206557
0.6785595198399467,-1.8757976683387352
0.6802267422474159,-1.8887718428437847
0.6818939646548849,-1.8999203987883835
0.6835611870623541,-1.9092310011968272
0.6852284094698233,-1.9166943773252136
0.6868956318772924,-1.9223043321637814
0.6885628542847616,-1.9260577585543728
0.6902300766922308,-1.927954641905341
0.6918972990996999,-1.927998059495708
0.6935645215071691,-1.926194174369872
0.6952317439146383,-1.9225522238336619
0.6968989663221073,-1.9170845025720065
0.6985661887295765,-1.9098063404179255
0.7002334111370457,-1.9007360748119566
0.7019006335445148,-1.8898950180004075
0.703567855951984,-1.8773074190301067
0.7052350783594532,-1.8630004206064386
0.7069023007669223,-1.847004010890433
0.7085695231743915,-1.8293509703196198
0.7102367455818607,-1.8100768135460643
0.7119039679893298,-1.7892197265935366
0.713571190396799,-1.7668204993442282
0.7152384128042681,-1.7429224534735668
0.7169056352117372,-1.717571365959695
0.7185728576192064,-1.690815388301945
0.7202400800266756,-1.6627049615901623
0.7219073024341447,-1.633292727574024
0.7235745248416139,-1.6026334358885084
0.7252417472490831,-1.5707838475984222
0.7269089696565522,-1.5378026352313683
0.7285761920640214,-1.5037502794746271
0.7302434144714905,-1.4686889627174264
0.7319106368789596,-1.4326824596254404
0.7335778592864288,-1.395796024939643
0.735245081693898,-1.3580962786966106
0.7369123041013671,-1.3196510890716517
0.7385795265088363,-1.2805294530505595
0.7402467489163055,-1.2408013751394893
0.7419139713237746,-1.200537744325817
0.7435811937312438,-1.1598102095060763
0.745248416138713,-1.1186910535996815
0.746915638546182,-1.0772530665693434
0.7485828609536512,-1.0355694175712182
0.7502500833611204,-0.993713526459169
0.7519173057685895,-0.9517589348687401
0.7535845281760587,-0.9097791771071603
0.7552517505835279,-0.8678476510760308
0.756918972990997,-0.8260374894532885
0.7585861953984662,-0.7844214313605853
0.7602534178059354,-0.7430716947413635
0.7619206402134044,-0.7020598496736856
0.7635878626208736,-0.6614566928401311
0.7652550850283428,-0.6213321233752451
0.7669223074358119,-0.5817550203083672
0.7685895298432811,-0.5427931218169787
0.7702567522507503,-0.5045129065026355
0.7719239746582194,-0.46697947689772146
0.7735911970656886,-0.4302564454076253
0.7752584194731578,-0.3944058228885313
0.7769256418806268,-0.3594879100563185
0.778592864288096,-0.3255611919172734
0.7802600866955652,-0.2926822354058506
0.7819273091030343,-0.2609055904091645
0.7835945315105035,-0.2302836943519252
0.7852617539179727,-0.20086678050928508
0.7869289763254418,-0.1727027902085111
0.788596198732911,-0.14583728907357218
0.7902634211403802,-0.12031338745962983
0.7919306435478493,-0.09617166521706533
0.7935978659553184,-0.07345010091706905
0.7952650883627876,-0.052184005662986865
0.7969323107702567,-0.03240596160357756
0.7985995331777259,-0.014145765256027953
0.8002667555851951,0.0025696242617716525
0.8019339779926642,0.01771613199892652
0.8036012004001334,0.03127260885716254
0.8052684228076026,0.04322086812122061
0.8069356452150717,0.05354571677001674
0.8086028676225409,0.06223498151362328
0.81027009003001,0.06927952951044347
0.8119373124374791,0.07467328372830129
0.8136045348449483,0.07841323292252433
0.8152717572524175,0.08049943621360112
0.8169389796598866,0.08093502225644256
0.8186062020673558,0.079726183002791
0.820273424474825,0.07688216206780718
0.8219406468822941,0.07241523772134117
0.8236078692897633,0.06634070053383267
0.8252750916972325,0.05867682571617072
0.8269423141047015,0.04944484020216133
0.8286095365121707,0.03866888453147932
0.8302767589196399,0.026375969600114124
0.831943981327109,0.012595928354337649
0.8336112037345782,-0.0026386374869322715
0.8352784261420474,-0.01929241558770378
0.8369456485495165,-0.03732744592625448
0.8386128709569857,-0.05670318839167532
0.8402800933644549,-0.07737659492679094
0.8419473157719239,-0.09930218609077268
0.8436145381793931,-0.12243213190688229
0.8452817605868623,-0.14671633685329732
0.8469489829943314,-0.17210252884776311
0.8486162054018006,-0.19853635206967535
0.8502834278092698,-0.22596146345656842
0.8519506502167389,-0.2543196327054783
0.8536178726242081,-0.2835508456035074
