t,signal
0.0,0.0
0.0016672224074691564,0.7002009548044081
0.003334444814938313,1.390501099880737
0.005001667222407469,2.061155745094654
0.006668889629876626,2.702729975773847
0.008336112037345782,3.30624742000565
0.010003334444814937,3.8633317796658786
0.011670556852284094,4.366338891677041
0.013337779259753251,4.808477235437476
0.015005001667222408,5.183914984695152
0.016672224074691565,5.487871914483348
0.01833944648216072,5.716694712739204
0.020006668889629875,5.867914508118605
0.021673891297099034,5.94028570616876
0.02334111370456819,5.933805520994679
0.025008336112037347,5.8497138942019795
0.026675558519506502,5.690473802408994
0.028342780926975657,5.459732264110975
0.030010003334444816,5.162262661264792
0.03167722574191397,4.8038892858367594
0.03334444814938313,4.391395302065856
0.03501167055685228,3.9324155769129554
0.03667889296432144,3.4353160699632435
0.0383461153717906,2.9090616861557654
0.04001333777925975,2.363074676783169
0.04168056018672891,1.807085823363506
0.04334778259419807,1.2509807528801442
0.045015005001667226,0.7046438097181045
0.04668222740913638,0.1778019481832278
0.048349449816605536,-0.32012889083434315
0.050016672224074694,-0.7801924946934027
0.051683894631543846,-1.194033838434415
0.053351117039013005,-1.554031056412656
0.05501833944648216,-1.8534158434606938
0.056685561853951315,-2.0863803855040617
0.05835278426142047,-2.2481691321339268
0.06002000666888963,-2.3351539628514293
0.061687229076358784,-2.3448915607644043
0.06335445148382794,-2.276162088303432
0.0650216738912971,-2.128988554598818
0.06668889629876626,-1.9046365688671463
0.06835611870623541,-1.6055944836864566
0.07002334111370456,-1.235534241508275
0.07169056352117373,-0.7992535422791036
0.07335778592864288,-0.30260024481741654
0.07502500833611203,0.24761980503677128
0.0766922307435812,0.8437500649388365
0.07835945315105035,1.4774040120727088
0.0800266755585195,2.139597379680624
0.08169389796598867,2.820889827263449
0.08336112037345782,3.5115338087518433
0.08502834278092698,4.2016282893566945
0.08669556518839613,4.881274885289322
0.08836278759586529,5.5407339623067156
0.09003001000333445,6.1705782296865515
0.0916972324108036,6.76184140576154
0.09336445481827275,7.306159608918981
0.09503167722574192,7.795903242771285
0.09669889963321107,8.224297294215733
0.09836612204068022,8.58552814595911
0.10003334444814939,8.874835217899157
0.10170056685561854,9.088585991172312
0.10336778926308769,9.22433323091684
0.10503501167055686,9.280853504724307
0.10670223407802601,9.258166388926863
0.10836945648549516,9.157534059635124
0.11003667889296433,8.981441274991361
0.11170390130043348,8.733556064551127
0.11337112370790263,8.418671746168926
0.1150383461153718,8.042631185436143
0.11670556852284095,7.612234492951417
0.1183727909303101,7.135131616072813
0.12004001333777926,6.619701520182797
0.12170723574524842,6.0749198661291395
0.12337445815271757,5.510217272047926
0.12504168056018672,4.93533039636345
0.12670890296765588,4.360148192049475
0.12837612537512505,3.7945557584391123
0.1300433477825942,3.248278254783666
0.13171057019006335,2.730727338786295
0.13337779259753252,2.250852553489558
0.13504501500500166,1.8170000078048343
0.13671223741247082,1.4367805808702228
0.13837945981994,1.1169497301269145
0.14004668222740912,0.863300799884021
0.1417139046348783,0.6805735140896125
0.14338112704234746,0.5723790974019298
0.1450483494498166,0.5411432062415482
0.14671557185728576,0.5880675704443119
0.14838279426475492,0.7131109508606208
0.15005001667222406,0.9149897134196951
0.15171723907969323,1.1911980106078959
0.1533844614871624,1.5380472518833894
0.15505168389463153,1.9507242401486926
0.1567189063021007,2.423367056831605
0.15838612870956986,2.9491574980321245
0.160053351117039,3.5204286029989276
0.16172057352450817,4.128785578025322
0.16338779593197733,4.765238207459597
0.1650550183394465,5.42034266224584
0.16672224074691563,6.0843504681072
0.1683894631543848,6.747362282496861
0.17005668556185397,7.399484053553695
0.1717239079693231,8.03098309670949
0.17339113037679227,8.632441625893339
0.17505835278426143,9.194905316448358
0.17672557519173057,9.710024555280787
0.17839279759919974,10.170186149164723
0.1800600200066689,10.56863341270666
0.18172724241413804,10.89957274085554
0.1833944648216072,11.158264984132733
0.18506168722907637,11.341100184585951
0.1867289096365455,11.445654493057226
0.18839613204401467,11.470728369553415
0.19006335445148384,11.41636546388075
0.19173057685895298,11.283851878591722
0.19339779926642214,11.07569582588101
0.1950650216738913,10.795587999472314
0.19673224408136045,10.448343286876353
0.1983994664888296,10.039824741869745
0.20006668889629878,9.576851016997741
0.20173391130376792,9.067088716922424
0.20340113371123708,8.518931371403742
0.20506835611870625,7.941366937857694
0.20673557852617538,7.3438359244512394
0.20840280093364455,6.736082372712278
0.21007002334111372,6.128000051317206
0.21173724574858285,5.5294762882913915
0.21340446815605202,4.950235906126385
0.21507169056352118,4.399687722693223
0.21673891297099032,3.8867760403399494
0.2184061353784595,3.4198394668424936
0.22007335778592865,3.0064792961729117
0.2217405801933978,2.65343952618459
0.22340780260086696,2.3665004066703696
0.22507502500833612,2.150387197725344
0.22674224741580526,2.008695578310318
0.22840946982327442,1.9438348821535953
0.2300766922307436,1.956990056793237
0.23174391463821273,2.0481029460901885
0.2334111370456819,2.215873191596801
0.23507835945315106,2.4577787385579315
0.2367455818606202,2.7701156229389623
0.23841280426808936,3.1480564115991747
0.24008002667555853,3.5857263733613465
0.24174724908302767,4.076296178915422
0.24341447149049683,4.612089666650652
0.245081693897966,5.184704973753461
0.24674891630543513,5.785147120989493
0.2484161387129043,6.403969958836784
0.25008336112037344,7.031425234903397
0.25175058352784263,7.657616430182605
0.25341780593531177,8.272654936439112
0.2550850283427809,8.866816110075982
0.2567522507502501,9.430692739779413
0.25841947315771924,9.955343506052817
0.2600866955651884,10.432434089784763
0.26175391797265757,10.85436870300136
0.2634211403801267,11.214409966101988
0.26508836278759584,11.50678523978312
0.26675558519506504,11.72677773361376
0.2684228076025342,11.8708009534679
0.2700900300100033,11.936455312950244
0.2717572524174725,11.922566015422916
0.27342447482494164,11.829201608811621
0.2750916972324108,11.657672920374274
0.27675891963988,11.410512388240729
0.2784261420473491,11.091434115892882
0.28009336445481825,10.70527527996716
0.28176058686228744,10.257919816026941
0.2834278092697566,9.756205586624926
0.2850950316772257,9.207816496643265
0.2867622540846949,8.62116125844775
0.28842947649216405,8.00524072007288
0.2900966988996332,7.369505850141955
0.2917639213071024,6.723708620674089
0.2934311437145715,6.077748141008428
0.29509836612204066,5.441514471018351
0.29676558852950985,4.8247325784120445
0.298432810936979,4.236808902641689
0.3001000333444481,3.686682946807697
0.3017672557519173,3.182686239597936
0.30343447815938646,2.7324108929937543
0.3051017005668556,2.3425898300427015
0.3067689229743248,2.018990572831844
0.3084361453817939,1.766324266799658
0.31010336778926306,1.5881713770786705
0.31177059019673226,1.4869252294578041
0.3134378126042014,1.4637542869452727
0.31510503501167053,1.5185837572444543
0.3167722574191397,1.6500968213919105
0.31843947982660886,1.8557554641629253
0.320106702234078,2.131840577512433
0.3217739246415472,2.4735107041692372
0.32344114704901633,2.874878494338991
0.3251083694564855,3.329103668939354
0.32677559186395466,3.8285010222986244
0.3284428142714238,4.364661759910481
0.330110036678893,4.928586256394747
0.33177725908636213,5.510826138590923
0.33344448149383127,6.101633451550433
0.33511170390130046,6.69111455341656
0.3367789263087696,7.2693863105550065
0.33844614871623874,7.826732127996664
0.34011337112370793,8.353755352853144
0.34178059353117707,8.84152762982277
0.3434478159386462,9.28172986756688
0.3451150383461154,9.66678359134362
0.34678226075358454,9.989970609002732
0.3484494831610537,10.245539101872346
0.35011670556852287,10.428794466298834
0.351783927975992,10.536173472252184
0.35345115038346114,10.565300568684549
0.35511837279093034,10.515025447073068
0.3567855951983995,10.385441270344762
0.3584528176058686,10.177883279502566
0.3601200400133378,9.894907799933128
0.36178726242080694,9.540251978691389
0.3634544848282761,9.118774888143294
0.3651217072357453,8.63638092540738
0.3667889296432144,8.099926716427658
0.36845615205068355,7.517112993824883
0.37012337445815274,6.896363154804282
0.3717905968656219,6.246690415600307
0.373457819273091,5.5775556588983655
0.3751250416805602,4.898718217548724
0.37679226408802935,4.220081949360651
0.3784594864954985,3.551539032076093
0.3801267089029677,2.902813943601259
0.3817939313104368,2.2833100896499956
0.38346115371790596,1.7019614991736924
0.38512837612537515,1.1670919279776233
0.3867955985328443,0.6862835940138128
0.3884628209403134,0.26625761584161634
0.3901300433477826,-0.08723195894093383
0.39179726575525176,-0.3694888629575077
0.3934644881627209,-0.5769486245240616
0.3951317105701901,-0.7072347212942525
0.3967989329776592,-0.7591959859241904
0.39846615538512836,-0.7329246734646544
0.40013337779259756,-0.6297549053682152
0.4018006002000667,-0.45224151467764706
0.40346782260753583,-0.20411962625283042
0.405135045015005,0.10975439008395194
0.40680226742247416,0.48347966164877043
0.4084694898299433,0.9102040391565094
0.4101367122374125,1.3822323359164774
0.41180393464488163,1.8911478718176218
0.41347115705235077,2.4279454039941486
0.41513837945981996,2.9831733463669554
0.4168056018672891,3.5470830336682027
0.41847282427475824,4.109782674386426
0.42014004668222743,4.661393563073001
0.42180726908969657,5.192206086795377
0.4234744914971657,5.6928330637717695
0.4251417139046349,6.154357994321941
0.42680893631210404,6.568475884558704
0.4284761587195732,6.927624420454909
0.43014338112704237,7.225103422201945
0.4318106035345115,7.455180693726118
0.43347782594198064,7.613182596928335
0.43514504834944984,7.695567921273234
0.436812270756919,7.69998388297167
0.4384794931643881,7.625303370015061
0.4401467155718573,7.471642845281253
0.44181393797932644,7.240360625168426
0.4434811603867956,6.934035560909247
0.4451483827942648,6.556426458984844
0.4468156052017339,6.112412881016383
0.44848282760920305,5.607918257364052
0.45015005001667224,5.049816527772767
0.4518172724241414,4.4458237823654425
0.4534844948316105,3.804376612994419
0.4551517172390797,3.1344990946887057
0.45681893964654885,2.4456604963626343
0.458486162054018,1.7476259662547873
0.4601533844614872,1.0503025484323354
0.4618206068689563,0.36358296037675863
0.46348782927642546,-0.30281040300044837
0.46515505168389465,-0.9394787771368862
0.4668222740913638,-1.5374952280406105
0.4684894964988329,-2.088545406204963
0.4701567189063021,-2.58505863297735
0.47182394131377126,-3.0203272507089958
0.4734911637212404,-3.3886123532220194
0.4751583861287096,-3.6852342280637744
0.4768256085361787,-3.9066460832839
0.47849283094364786,-4.050489895257813
0.48016005335111706,-4.115633496230007
0.4818272757585862,-4.102188316308583
0.48349449816605533,-4.011507499936436
0.4851617205735245,-3.846164426577019
0.48682894298099366,-3.6099119745956276
0.4884961653884628,-3.307623171210916
0.490163387795932,-2.9452141651394736
0.49183061020340113,-2.529550737524074
0.49349783261087027,-2.0683398265196695
0.49516505501833946,-1.570007777412784
0.4968322774258086,-1.043567239635809
0.49849949983327774,-0.4984748112009193
0.5001667222407469,0.055518322903674866
0.5018339446482161,0.6085204012514353
0.5035011670556853,1.150655314978271
0.5051683894631543,1.672218589767968
0.5068356118706235,2.163830659239417
0.5085028342780927,2.6165850108996813
0.5101700566855618,3.02218886674199
0.511837279093031,3.373094178380633
0.5135045015005002,3.6626168694603067
0.5151717239079693,3.885042443550196
0.5168389463154385,4.035716290899861
0.5185061687229077,4.111117268902456
0.5201733911303767,4.1089133950713865
0.5218406135378459,4.027998773619492
0.5235078359453151,3.8685111728851815
0.5251750583527842,3.6318299762005304
0.5268422807602534,3.3205545385251285
0.5285095031677226,2.938463290388298
0.5301767255751917,2.490454234510729
0.5318439479826609,1.9824677741208987
0.5335111703901301,1.4213930908068546
0.5351783927975992,0.8149595493506259
0.5368456152050683,0.17161484328254595
0.5385128376125375,-0.49960819585953686
0.5401800600200066,-1.1892340236837815
0.5418472824274758,-1.8874937948983008
0.543514504834945,-2.5844794041923134
0.5451817272424141,-3.270299725124792
0.5468489496498833,-3.935236581410778
0.5485161720573525,-4.569897989219912
0.5501833944648216,-5.16536625216909
0.5518506168722908,-5.713338571918995
0.55351783927976,-6.206257955398255
0.555185061687229,-6.637432352807727
0.5568522840946982,-7.001140146289458
0.5585195065021674,-7.2927203245451
0.5601867289096365,-7.5086459203626825
0.5618539513171057,-7.64657955213937
0.5635211737245749,-7.705410192906332
0.565188396132044,-7.685270586613433
0.5668556185395132,-7.587535036837902
0.5685228409469824,-7.41479760282674
0.5701900633544514,-7.170831046975809
0.5718572857619206,-6.860527181612415
0.5735245081693898,-6.489819556487754
0.5751917305768589,-6.06558970706778
0.5768589529843281,-5.5955584431410115
0.5785261753917973,-5.088163893340773
0.5801933977992664,-4.552428230186616
0.5818606202067356,-3.9978151788821994
0.5835278426142048,-3.4340805585512255
0.5851950650216738,-2.871118214546839
0.586862287429143,-2.318803773204415
0.5885295098366122,-1.7868386847732676
0.5901967322440813,-1.2845970157119946
0.5918639546515505,-0.8209774081470647
0.5935311770590197,-0.40426254274921014
0.5951983994664888,-0.04198832286931964
0.596865621873958,0.259175155634936
0.5985328442814272,0.49352897044353483
0.6002000666888962,0.6564354118854467
0.6018672890963654,0.7443912741891605
0.6035345115038346,0.7550832422443374
0.6052017339113037,0.6874244997991461
0.6068689563187729,0.5415719813644859
0.6085361787262421,0.3189239955599277
0.6102034011337112,0.022098257396733878
0.6118706235411804,-0.34510932383845194
0.6135378459486496,-0.7777844507367759
0.6152050683561187,-1.2699718941616385
0.6168722907635878,-1.8147693775472753
0.618539513171057,-2.404436407513993
0.6202067355785261,-3.0305163333442735
0.6218739579859953,-3.6839697090959733
0.6235411803934645,-4.3553168537622975
0.6252084028009336,-5.03478735973171
0.6268756252084028,-5.712474190150296
0.628542847615872,-6.378489933368957
0.6302100700233411,-7.023122748618862
0.6318772924308103,-7.636989541930184
0.6335445148382794,-8.211183955017695
0.6352117372457485,-8.73741683171662
0.6368789596532177,-9.208146945261712
0.6385461820606869,-9.616699923398453
0.640213404468156,-9.957373494566852
0.6418806268756252,-10.225527394265407
0.6435478492830944,-10.417656512782738
0.6452150716905636,-10.531446129954421
0.6468822940980327,-10.56580836528778
0.6485495165055019,-10.520899268240516
0.650216738912971,-10.39811627895811
0.6518839613204401,-10.200076099550802
0.6535511837279093,-9.93057332513401
0.6552184061353785,-9.59452048748845
0.6568856285428476,-9.197870457524633
0.6585528509503168,-8.747522431134914
0.660220073357786,-8.251212982087376
0.6618872957652551,-7.717393901275123
0.6635545181727243,-7.155098750159217
0.6652217405801935,-6.5738002343474475
0.6668889629876625,-5.983260648117786
0.6685561853951317,-5.393377750043817
0.6702234078026009,-4.814028501982806
0.67189063021007,-4.2549131374034985
0.6735578526175392,-3.725402019834145
0.6752250750250084,-3.2343877081810963
0.6768922974324775,-2.7901445634954136
0.6785595198399467,-2.4001981127550445
0.6802267422474159,-2.071206231252291
0.6818939646548849,-1.808854018665036
0.6835611870623541,-1.6177640277901322
0.6852284094698233,-1.5014232626339288
0.6868956318772924,-1.4621280979165707
0.6885628542847616,-1.5009479892265523
0.6902300766922308,-1.6177085465250558
0.6918972990996999,-1.810994238123964
0.6935645215071691,-2.0781706824714323
0.6952317439146383,-2.4154261759607216
0.6968989663221073,-2.81783180141323
0.6985661887295765,-3.2794191686621783
0.7002334111370457,-3.793274560409278
0.7019006335445148,-4.351647997634375
0.703567855951984,-4.9460755033892605
0.7052350783594532,-5.567512635523018
0.7069023007669223,-6.206477181049322
0.7085695231743915,-6.8531987602853075
0.7102367455818607,-7.497772979847688
0.7119039679893298,-8.13031770180546
0.713571190396799,-8.741128962894
0.7152384128042681,-9.320834083215779
0.7169056352117372,-9.860539548207916
0.7185728576192064,-10.35197133013931
0.7202400800266756,-10.787605434711384
0.7219073024341447,-11.160786612597612
0.7235745248416139,-11.46583336252451
0.7252417472490831,-11.698127568832641
0.7269089696565522,-11.854187358940983
0.7285761920640214,-11.931722030945366
0.7302434144714905,-11.929668184535444
0.7319106368789596,-11.848206485046502
0.7335778592864288,-11.688758796092763
0.735245081693898,-11.453965726034248
0.7369123041013671,-11.14764494262037
0.7385795265088363,-10.774730913652384
0.7402467489163055,-10.341197024625282
0.7419139713237746,-9.853961302419517
0.7435811937312438,-9.320777232827412
0.745248416138713,-8.750111394935983
0.746915638546182,-8.151009843429994
0.7485828609536512,-7.532955347451319
0.7502500833611204,-6.905717738943427
0.7519173057685895,-6.279199732148419
0.7535845281760587,-5.663280647396311
0.7552517505835279,-5.067660505396768
0.756918972990997,-4.501706952397628
0.7585861953984662,-3.9743074318990006
0.7602534178059354,-3.493728935817047
0.7619206402134044,-3.067487548377165
0.7635878626208736,-2.7022298414772585
0.7652550850283428,-2.403627993232968
0.7669223074358119,-2.176290284847769
0.7685895298432811,-2.0236883882657093
0.7702567522507503,-1.9481025920863448
0.7719239746582194,-1.9505858301356431
0.7735911970656886,-2.0309470803605123
0.7752584194731578,-2.187754396028798
0.7769256418806268,-2.4183575213972777
0.778592864288096,-2.7189297349455437
0.7802600866955652,-3.0845282598412864
0.7819273091030343,-3.509172288290825
0.7835945315105035,-3.9859373884626925
0.7852617539179727,-4.507064804135621
0.7869289763254418,-5.064083922199871
0.788596198732911,-5.6479459753371035
0.7902634211403802,-6.24916686989898
0.7919306435478493,-6.857976885001536
0.7935978659553184,-7.464474880414235
0.7952650883627876,-8.05878457966979
0.7969323107702567,-8.631210462072453
0.7985995331777259,-9.1723908034521
0.8002667555851951,-9.673445450509293
0.8019339779926642,-10.126115996704804
0.8036012004001334,-10.522896147560031
0.8052684228076026,-10.857150218055015
0.8069356452150717,-11.123217892100875
0.8086028676225409,-11.316503590862041
0.81027009003001,-11.433549039592506
0.8119373124374791,-11.472087887797311
0.8136045348449483,-11.431081520747512
0.8152717572524175,-11.310735497198568
0.8169389796598866,-11.112496353901665
0.8186062020673558,-10.839028827330855
0.820273424474825,-10.494173852087116
0.8219406468822941,-10.082887998804798
0.8236078692897633,-9.611165307291751
0.8252750916972325,-9.08594274845628
0.8269423141047015,-8.514990806930209
0.8286095365121707,-7.9067909111082
0.8302767589196399,-7.270401644887156
0.831943981327109,-6.615315852424843
0.8336112037345782,-5.951310890955511
0.8352784261420474,-5.288294394832808
0.8369456485495165,-4.636147984804994
0.8386128709569857,-4.004571388956672
0.8402800933644549,-3.402929435253491
0.8419473157719239,-2.8401043303079474
0.8436145381793931,-2.3243555555642255
0.8452817605868623,-1.8631895918866466
0.8469489829943314,-1.4632415284340228
0.8486162054018006,-1.130170424154847
0.8502834278092698,-0.8685700732064712
0.8519506502167389,-0.6818965825106025
0.8536178726242081,-0.572413904342902
0.8552850950316773,-0.5411581835047823
0.8569523174391463,-0.587921481709718
0.8586195398466155,-0.7112551360231079
0.8602867622540847,-0.9084926983473922
0.8619539846615538,-1.1757920939331878
0.863621207069023,-1.5081963336005666
0.8652884294764922,-1.8997118215551017
0.8669556518839613,-2.34340302300691
0.8686228742914305,-2.831501997623958
0.8702900966988997,-3.3555310702513594
0.8719573191063688,-3.906436703009467
