t,signal
0.0,0.0
0.0016672224074691564,0.08379301024379243
0.003334444814938313,0.16752166220884657
0.005001667222407469,0.25112165915456924
0.006668889629876626,0.3345288273561082
0.008336112037345782,0.4176791774609071
0.010003334444814937,0.5005089656638513
0.011670556852284094,0.5829547546408118
0.013337779259753251,0.6649534741806337
0.015005001667222408,0.7464424814559149
0.016672224074691565,0.8273596208732772
0.01833944648216072,0.907643283444244
0.020006668889629875,0.9872324656183153
0.021673891297099034,1.0660668275203622
0.02334111370456819,1.1440867505350436
0.025008336112037347,1.221233394181609
0.026675558519506502,1.2974487522231266
0.028342780926975657,1.3726757079549605
0.030010003334444816,1.4468580886181048
0.03167722574191397,1.5199407188838647
0.03334444814938313,1.5918694733572833
0.03501167055685228,1.6625913280476798
0.03667889296432144,1.7320544107556934
0.0383461153717906,1.800208050327282
0.04001333777925975,1.867002824726261
0.04168056018672891,1.9323906078781197
0.04334778259419807,1.9963246152390681
0.045015005001667226,2.058759448045535
0.04668222740913638,2.119651136200628
0.048349449816605536,2.1789571797554164
0.050016672224074694,2.2366365889442945
0.051683894631543846,2.2926499227350825
0.053351117039013005,2.3469593258560346
0.05501833944648216,2.3995285642633695
0.056685561853951315,2.4503230590145324
0.05835278426142047,2.499309918513932
0.06002000666888963,2.5464579690995257
0.061687229076358784,2.591737783940249
0.06335445148382794,2.6351217102159668
0.0650216738912971,2.6765838945533016
0.06668889629876626,2.716100306692437
0.06835611870623541,2.753648761361717
0.07002334111370456,2.789208938338653
0.07169056352117373,2.8227624006777265
0.07335778592864288,2.8542926110871836
0.07502500833611203,2.883784946438861
0.0766922307435812,2.9112267103969
0.07835945315105035,2.93660714415309
0.0800266755585195,2.959917435258429
0.08169389796598867,2.9811507245423776
0.08336112037345782,3.0003021111131707
0.08502834278092698,3.0173686554344448
0.08669556518839613,3.0323493804753334
0.08836278759586529,3.045245270933087
0.09003001000333445,3.0560592705291794
0.0916972324108036,3.064796277381757
0.09336445481827275,3.071463137459194
0.09503167722574192,3.0760686361214007
0.09669889963321107,3.0786234877574294
0.09836612204068022,3.079140323529792
0.10003334444814939,3.077633677237782
0.10170056685561854,3.0741199693139345
0.10336778926308769,3.068617488969619
0.10503501167055686,3.0611463745075733
0.10670223407802601,3.0517285918209933
0.10836945648549516,3.040387911100601
0.11003667889296433,3.0271498817728544
0.11170390130043348,3.012041805694236
0.11337112370790263,2.9950927086282597
0.1150383461153718,2.9763333100335267
0.11670556852284095,2.955795991192849
0.1183727909303101,2.9335147617150774
0.12004001333777926,2.909525224442877
0.12170723574524842,2.8838645388012747
0.12337445815271757,2.856571382623341
0.12504168056018672,2.827685912490855
0.12670890296765588,2.7972497226292923
0.12837612537512505,2.7653058023978785
0.1300433477825942,2.731898492416848
0.13171057019006335,2.6970734393753872
0.13337779259753252,2.660877549565056
0.13504501500500166,2.623358941184713
0.13671223741247082,2.5845668954641985
0.13837945981994,2.544551806655207
0.14004668222740912,2.503365130938862
0.1417139046348783,2.4610593343005993
0.14338112704234746,2.417687839423995
0.1450483494498166,2.3733049716560957
0.14671557185728576,2.327965904097779
0.14838279426475492,2.281726601873494
0.15005001667222406,2.2346437656355507
0.15171723907969323,2.1867747743589008
0.1533844614871624,2.1381776274830187
0.15505168389463153,2.088910886458161
0.1567189063021007,2.0390336157538504
0.15838612870956986,1.9886053233879772
0.160053351117039,1.9376859010353709
0.16172057352450817,1.8863355637750958
0.16338779593197733,1.834614789536125
0.1650550183394465,1.7825842583012783
0.16672224074691563,1.7303047911296043
0.1683894631543848,1.6778372890575197
0.17005668556185397,1.6252426719391861
0.1717239079693231,1.5725818172865975
0.17339113037679227,1.5199154991699129
0.17505835278426143,1.4673043272384727
0.17672557519173057,1.4148086859228108
0.17839279759919974,1.3624886738778306
0.1800600200066689,1.3104040437270221
0.18172724241413804,1.2586141421673505
0.1833944648216072,1.2071778504940345
0.18506168722907637,1.156153525604068
0.1867289096365455,1.1055989415368308
0.18839613204401467,1.0555712316095955
0.19006335445148384,1.0061268312051967
0.19173057685895298,0.9573214212684125
0.19339779926642214,0.9092098725669595
0.1950650216738913,0.8618461907722395
0.19673224408136045,0.815283462414127
0.1983994664888296,0.7695738017632618
0.20006668889629878,0.7247682986933899
0.20173391130376792,0.6809169675752893
0.20340113371123708,0.6380686972528342
0.20506835611870625,0.5962712021506813
0.20673557852617538,0.5555709745618969
0.20840280093364455,0.5160132381627378
0.21007002334111372,0.47764190280053964
0.21173724574858285,0.4404995205994202
0.21340446815605202,0.4046272434272111
0.21507169056352118,0.3700647817656775
0.21673891297099032,0.33685036502468324
0.2184061353784595,0.3050207033395629
0.22007335778592865,0.27461095088946275
0.2217405801933978,0.24565467077293013
0.22340780260086696,0.21818380147547511
0.22507502500833612,0.19222862496227533
0.22674224741580526,0.16781773642755105
0.22840946982327442,0.1449780157305487
0.2300766922307436,0.12373460054635643
0.23174391463821273,0.10411086125810809
0.2334111370456819,0.08612837761540248
0.23507835945315106,0.06980691718201193
0.2367455818606202,0.05516441559419816
0.23841280426808936,0.042216958649144765
0.24008002667555853,0.03097876624122864
0.24174724908302767,0.021462178162003465
0.24341447149049683,0.013677641777942062
0.245081693897966,0.007633701598116049
0.24674891630543513,0.003336990742134338
0.2484161387129043,0.0007922243167670651
0.25008336112037344,2.194707815705854e-06
0.25175058352784263,0.0009677687918729916
0.25341780593531177,0.0036878870707368616
0.2550850283427809,0.00815956472933288
0.2567522507502501,0.014377894616096398
0.25841947315771924,0.02233605214286949
0.2600866955651884,0.03202530209947052
0.26175391797265757,0.04343500737619488
0.2634211403801267,0.05655263958561885
0.26508836278759584,0.0713637915732166
0.26675558519506504,0.08785219180440995
0.2684228076025342,0.10599972061382323
0.2700900300100033,0.1257864283006922
0.2717572524174725,0.14719055505251633
0.27342447482494164,0.17018855267726352
0.2750916972324108,0.19475510812264707
0.27675891963988,0.2208631687592022
0.2784261420473491,0.2484839694021732
0.28009336445481825,0.27758706104550024
0.28176058686228744,0.3081403412794723
0.2834278092697566,0.3401100863619888
0.2850950316772257,0.37346098491171364
0.2867622540846949,0.4081561731898027
0.28842947649216405,0.44415727193530596
0.2900966988996332,0.4814244247178545
0.2917639213071024,0.5199163377696696
0.2934311437145715,0.5595903212575273
0.29509836612204066,0.6004023319538689
0.29676558852950985,0.642307017264854
0.298432810936979,0.6852577605718051
0.3001000333444481,0.7292067278412482
0.3017672557519173,0.774104915457408
0.30343447815938646,0.8199021992298843
0.3051017005668556,0.866547384528052
0.3067689229743248,0.913988257492573
0.3084361453817939,0.9621716372734027
0.31010336778926306,1.011043429242633
0.31177059019673226,1.0605486791295184
0.3134378126042014,1.1106316280241673
0.31510503501167053,1.161235768195509
0.3167722574191397,1.2123038996682967
0.31843947982660886,1.2637781875032195
0.320106702234078,1.3156002197234709
0.3217739246415472,1.3677110658304612
0.32344114704901633,1.4200513358507951
0.3251083694564855,1.4725612398561456
0.32677559186395466,1.5251806478970984
0.3284428142714238,1.577849150291732
0.330110036678893,1.6305061182092602
0.33177725908636213,1.6830907644888156
0.33344448149383127,1.7355422046332396
0.33511170390130046,1.78779951791748
0.3367789263087696,1.8398018085511967
0.33844614871623874,1.8914882668350441
0.34011337112370793,1.942798230250123
0.34178059353117707,1.9936712444201414
0.3434478159386462,2.0440471238860214
0.3451150383461154,2.0938660126327537
0.34678226075358454,2.1430684443086436
0.3484494831610537,2.191595402077352
0.35011670556852287,2.239388378043506
0.351783927975992,2.2863894321930376
0.35345115038346114,2.332541250789971
0.35511837279093034,2.3777872041718116
0.3567855951983995,2.4220714038863527
0.3584528176058686,2.4653387591133527
0.3601200400133378,2.507535032315191
0.36178726242080694,2.5486068940614475
0.3634544848282761,2.5885019769731183
0.3651217072357453,2.627168928733033
0.3667889296432144,2.664557464110001
0.36845615205068355,2.700618415945179
0.37012337445815274,2.735303785050119
0.3717905968656219,2.7685667889671226
0.373457819273091,2.800361909543574
0.3751250416805602,2.8306449392731228
0.37679226408802935,2.859373026357792
0.3784594864954985,2.8865047184463855
0.3801267089029677,2.9120000050058064
0.3817939313104368,2.935820358283319
0.38346115371790596,2.957928772819122
0.38512837612537515,2.9782898034700667
0.3867955985328443,2.996869601906788
0.3884628209403134,3.013635951548073
0.3901300433477826,3.0285583008977697
0.39179726575525176,3.0416077952511666
0.3934644881627209,3.0527573067393696
0.3951317105701901,3.061981462681808
0.3967989329776592,3.069256672218727
0.39846615538512836,3.0745611511971873
0.40013337779259756,3.0778749452858083
0.4018006002000667,3.0791799512952647
0.40346782260753583,3.078459936683304
0.405135045015005,3.0757005572248337
0.40680226742247416,3.0708893728294706
0.4084694898299433,3.064015861490719
0.4101367122374125,3.055071431352851
0.41180393464488163,3.0440494308833648
0.41347115705235077,3.030945157140807
0.41513837945981996,3.015755862129595
0.4168056018672891,2.998480757235388
0.41847282427475824,2.9791210157364203
0.42014004668222743,2.9576797733881524
0.42180726908969657,2.934162127080443
0.4234744914971657,2.9085751315683996
0.4251417139046349,2.8809277942799225
0.42680893631210404,2.8512310682048922
0.4284761587195732,2.819497842872816
0.43014338112704237,2.7857429334276502
0.4318106035345115,2.7499830678103887
0.43347782594198064,2.712236872061876
0.43514504834944984,2.6725248537601605
0.436812270756919,2.6308693836085446
0.4384794931643881,2.5872946751923043
0.4401467155718573,2.541826762923871
0.44181393797932644,2.4944934781980685
0.4434811603867956,2.4453244237807072
0.4451483827942648,2.3943509464556665
0.4468156052017339,2.34160610795725
0.44848282760920305,2.287124654216301
0.45015005001667224,2.2309429829502587
0.4518172724241414,2.17309910962897
0.4534844948316105,2.113632631849587
0.4551517172390797,2.0525846921556123
0.45681893964654885,1.9899979393365366
0.458486162054018,1.9259164882460857
0.4601533844614872,1.8603858781785687
0.4618206068689563,1.7934530298441922
0.46348782927642546,1.7251662009856314
0.46515505168389465,1.6555749406794642
0.4668222740913638,1.5847300423674047
0.4684894964988329,1.5126834956634467
0.4701567189063021,1.4394884369843832
0.47182394131377126,1.3651990990521703
0.4734911637212404,1.2898707593177836
0.4751583861287096,1.213559687357338
0.4768256085361787,1.1363230912921645
0.47849283094364786,1.0582190632855275
0.48016005335111706,0.9793065241696204
0.4818272757585862,0.8996451672572772
0.48349449816605533,0.8192954013936842
0.4851617205735245,0.7383182933041
0.48682894298099366,0.656775509294312
0.4884961653884628,0.574729256361157
0.490163387795932,0.4922422227710722
0.49183061020340113,0.4093775181651297
0.49349783261087027,0.3261986132494402
0.49516505501833946,0.2427692791303186
0.4968322774258086,0.1591535263539084
0.49849949983327774,0.07541554371014841
0.5001667222407469,-0.008380363138584897
0.5018339446482161,-0.09216983314387274
0.5035011670556853,-0.17588851141208964
0.5051683894631543,-0.25947211073924903
0.5068356118706235,-0.3428564730792072
0.5085028342780927,-0.4259776308847869
0.5101700566855618,-0.5087718682614588
0.511837279093031,-0.5911757818734581
0.5135045015005002,-0.6731263415422925
0.5151717239079693,-0.7545609504781396
0.5168389463154385,-0.8354175050848563
0.5185061687229077,-0.91563445427964
0.5201733911303767,-0.9951508582691704
0.5218406135378459,-1.0739064467242778
0.5235078359453151,-1.1518416762959007
0.5251750583527842,-1.2288977874158675
0.5268422807602534,-1.3050168603265153
0.5285095031677226,-1.3801418702840744
0.5301767255751917,-1.4542167418815408
0.5318439479826609,-1.5271864024375832
0.5335111703901301,-1.5989968343989838
0.5351783927975992,-1.6695951267050768
0.5368456152050683,-1.7389295250637329
0.5385128376125375,-1.8069494810893392
0.5401800600200066,-1.873605700254573
0.5418472824274758,-1.9388501886088276
0.543514504834945,-2.002636298217251
0.5451817272424141,-2.06491877127591
0.5468489496498833,-2.125653782859602
0.5485161720573525,-2.184798982260332
0.5501833944648216,-2.2423135328759227
0.5518506168722908,-2.2981581506094786
0.55351783927976,-2.3522951407420476
0.555185061687229,-2.404688433242266
0.5568522840946982,-2.4553036164783593
0.5585195065021674,-2.5041079692993353
0.5601867289096365,-2.5510704914539795
0.5618539513171057,-2.5961619323178073
0.5635211737245749,-2.63935481789974
0.565188396132044,-2.680623476102145
0.5668556185395132,-2.719944060209433
0.5685228409469824,-2.7572945705822156
0.5701900633544514,-2.7926548745358564
0.5718572857619206,-2.826006724383949
0.5735245081693898,-2.8573337736290867
0.5751917305768589,-2.886621591285193
0.5768589529843281,-2.913857674317425
0.5785261753917973,-2.939031458187563
0.5801933977992664,-2.9621343254947003
0.5818606202067356,-2.983159612702874
0.5835278426142048,-3.0021026149491803
0.5851950650216738,-3.018960588927854
0.586862287429143,-3.0337327538476226
0.5885295098366122,-3.046420290461606
0.5901967322440813,-3.0570263381708864
0.5918639546515505,-3.065555990204836
0.5935311770590197,-3.072016286883108
0.5951983994664888,-3.0764162069661607
0.596865621873958,-3.078766657103038
0.5985328442814272,-3.079080459387
0.6002000666888962,-3.077372337031493
0.6018672890963654,-3.0736588981807778
0.6035345115038346,-3.067958617871376
0.6052017339113037,-3.060291818162355
0.6068689563187729,-3.050680646454219
0.6085361787262421,-3.0391490520180175
0.6102034011337112,-3.025722760758022
0.6118706235411804,-3.0104292482330446
0.6135378459486496,-2.9932977109632604
0.6152050683561187,-2.974359036050984
0.6168722907635878,-2.9536457691456155
0.618539513171057,-2.9311920807845446
0.6202067355785261,-2.9070337311434047
0.6218739579859953,-2.881208033230675
0.6235411803934645,-2.853753814563132
0.6252084028009336,-2.824711377360161
0.6268756252084028,-2.7941224572963765
0.628542847615872,-2.7620301808534906
0.6302100700233411,-2.7284790213136665
0.6318772924308103,-2.6935147534379515
0.6335445148382794,-2.6571844068747854
0.6352117372457485,-2.6195362183446314
0.6368789596532177,-2.5806195826481875
0.6385461820606869,-2.5404850025466983
0.640213404468156,-2.4991840375639387
0.6418806268756252,-2.4567692517606696
0.6435478492830944,-2.4132941605332374
0.6452150716905636,-2.3688131764889713
0.6468822940980327,-2.3233815544520415
0.6485495165055019,-2.277055335654124
0.650216738912971,-2.2298912911652575
0.6518839613204401,-2.1819468646207394
0.6535511837279093,-2.1332801143008604
0.6552184061353785,-2.0839496546208007
0.6568856285428476,-2.0340145970885053
0.6585528509503168,-1.9835344907891037
0.660220073357786,-1.9325692624546602
0.6618872957652551,-1.8811791561786437
0.6635545181727243,-1.8294246728346952
0.6652217405801935,-1.7773665092597206
0.6668889629876625,-1.7250654972614403
0.6685561853951317,-1.6725825425107022
0.6702234078026009,-1.6199785633791226
0.67189063021007,-1.5673144297824906
0.6735578526175392,-1.5146509020904126
0.6752250750250084,-1.4620485701627555
0.6768922974324775,-1.4095677925730512
0.6785595198399467,-1.357268636079075
0.6802267422474159,-1.3052108154004922
0.6818939646548849,-1.2534536333630326
0.6835611870623541,-1.2020559214685285
0.6852284094698233,-1.1510759809495184
0.6868956318772924,-1.1005715243667664
0.6885628542847616,-1.0505996178073973
0.6902300766922308,-1.0012166237409215
0.6918972990996999,-0.9524781445895759
0.6935645215071691,-0.9044389670688053
0.6952317439146383,-0.8571530073530134
0.6968989663221073,-0.8106732571206827
0.6985661887295765,-0.7650517305323341
0.7002334111370457,-0.7203394121937334
0.7019006335445148,-0.6765862061557533
0.703567855951984,-0.6338408860014109
0.7052350783594532,-0.5921510460693746
0.7069023007669223,-0.5515630538622158
0.7085695231743915,-0.5121220036864482
0.7102367455818607,-0.4738716715701994
0.7119039679893298,-0.4368544715031255
0.713571190396799,-0.40111141304177456
0.7152384128042681,-0.366682060322413
0.7169056352117372,-0.33360449252177204
0.7185728576192064,-0.30191526580481853
0.7202400800266756,-0.27164937679724344
0.7219073024341447,-0.24284022761868873
0.7235745248416139,-0.21551959251136243
0.7252417472490831,-0.18971758609702793
0.7269089696565522,-0.1654626332937088
0.7285761920640214,-0.14278144092191902
0.7302434144714905,-0.12169897102844707
0.7319106368789596,-0.10223841595409966
0.7335778592864288,-0.084421175170029
0.735245081693898,-0.06826683390558252
0.7369123041013671,-0.053793143588779735
0.7385795265088363,-0.0410160041187575
0.7402467489163055,-0.029949447987730915
0.7419139713237746,-0.02060562626815532
0.7435811937312438,-0.012994796478935866
0.745248416138713,-0.007125312342708634
0.746915638546182,-0.003003615444293395
0.7485828609536512,-0.0006342287985814377
0.7502500833611204,-1.9752334216027734e-05
0.7519173057685895,-0.0011608602975241578
0.7535845281760587,-0.004056300579275085
0.7552517505835279,-0.008702895964927126
0.756918972990997,-0.015095547307123036
0.7585861953984662,-0.02322723861730913
0.7602534178059354,-0.03308904407142621
0.7619206402134044,-0.04467013692276045
0.7635878626208736,-0.05795780031313935
0.7652550850283428,-0.07293743997176838
0.7669223074358119,-0.0895925987891788
0.7685895298432811,-0.10790497325185444
0.7702567522507503,-0.1278544317212882
0.7719239746582194,-0.14941903453941618
0.7735911970656886,-0.1725750559405239
0.7752584194731578,-0.19729700774797654
0.7769256418806268,-0.22355766483232942
0.778592864288096,-0.2513280923056602
0.7802600866955652,-0.28057767442522374
0.7819273091030343,-0.31127414517784313
0.7835945315105035,-0.34338362051483085
0.7852617539179727,-0.3768706322055091
0.7869289763254418,-0.4116981632758945
0.788596198732911,-0.44782768499752557
0.7902634211403802,-0.4852191953897709
0.7919306435478493,-0.5238312591976579
0.7935978659553184,-0.563621049305614
0.7952650883627876,-0.6045443895461649
0.7969323107702567,-0.6465557988613349
0.7985995331777259,-0.6896085367729816
0.8002667555851951,-0.7336546501171739
0.8019339779926642,-0.7786450209963471
0.8036012004001334,-0.8245294159018757
0.8052684228076026,-0.8712565359584059
0.8069356452150717,-0.9187740682403162
0.8086028676225409,-0.9670287381095798
0.81027009003001,-1.0159663625231636
0.8119373124374791,-1.065531904257376
0.8136045348449483,-1.1156695269954522
0.8152717572524175,-1.166322651223883
0.8169389796598866,-1.2174340108822972
0.8186062020673558,-1.2689457107107804
0.820273424474825,-1.3207992842379084
0.8219406468822941,-1.3729357523522348
0.8236078692897633,-1.4252956823991865
0.8252750916972325,-1.4778192477449874
0.8269423141047015,-1.5304462877486413
0.8286095365121707,-1.5831163680827351
0.8302767589196399,-1.6357688413432678
0.831943981327109,-1.6883429078886532
0.8336112037345782,-1.740777676847704
0.8352784261420474,-1.793012227236142
0.8369456485495165,-1.8449856691213282
0.8386128709569857,-1.8966372047745699
0.8402800933644549,-1.947906189750541
0.8419473157719239,-1.99873219383344
0.8436145381793931,-2.0490550617894887
0.8452817605868623,-2.098814973865739
0.8469489829943314,-2.147952505975264
0.8486162054018006,-2.196408689509217
0.8502834278092698,-2.2441250707165525
0.8519506502167389,-2.291043769592621
0.8536178726242081,-2.3371075382184356
0.8552850950316773,-2.382259818492719
0.8569523174391463,-2.426444799199788
0.8586195398466155,-2.4696074723565684
0.8602867622540847,-2.5116936887831693
